-497 -869 166 -37 8 -780 70 576 48 -472 -1036 255 -155 416 -326 -263 9 324 -295 -293 150 -850 -357 -540 -320 680 1137 10 640 110 16 -79 -896 623 -824 475 -701 868 90 412 107 704 914 135 -484 897 -116 213 386 -496 113 -654 -272 -150 571 -616 -716 -41 -178 235 
-355 255 -135 290 20 51 -197 235 -87 372 -120 -808 247 1218 437 693 600 501 332 511 -102 -86 -572 -916 -767 569 178 532 85 -15 -175 -513 -287 -565 -114 -357 -148 -59 69 578 174 632 155 97 156 -156 1035 -474 -557 -276 311 -358 -408 -949 927 684 -309 390 897 283 
22 -526 490 -172 -44 -1206 565 258 591 -484 -1045 757 -778 855 -1408 -719 -120 -19 -17 134 61 -915 -358 198 -186 580 377 -490 849 -351 507 -159 447 417 -291 -522 -373 21 390 -313 329 686 164 266 -418 630 -739 315 -47 -24 -964 489 1008 -306 166 -263 -58 -266 -708 -453 
-102 143 85 -178 620 36 -240 -799 958 -77 175 -271 -598 534 17 -529 779 639 400 1289 111 339 481 -446 -568 -667 371 1316 204 606 457 -132 -7 875 -628 513 -91 623 184 -71 -225 859 39 1176 -285 1480 447 -33 26 -363 -473 -353 1121 923 283 39 -552 -714 814 -282 
140 500 622 712 513 -458 -595 64 -384 752 660 404 -56 -265 -429 1174 -229 85 753 73 -296 -161 -467 -869 -278 -104 -722 128 566 -278 728 -362 184 43 -51 51 -679 -275 527 448 -94 263 -924 618 -760 336 -651 811 28 -868 -561 253 16 668 69 -57 -976 -428 -598 -101 
685 -166 -273 -396 286 -49 -288 564 115 241 -176 -792 -323 646 -850 -214 213 347 131 360 -248 -2 207 150 -242 -45 223 -755 408 -96 249 -753 -234 764 -265 236 232 -56 -80 -593 208 0 521 185 109 -79 383 -538 304 226 205 646 56 -57 -419 269 -380 78 -287 245 
-354 -203 172 -217 90 -402 322 -26 -682 156 776 534 83 786 -100 123 -706 -31 718 746 9 -156 -251 -28 507 -20 -644 384 -584 -1027 -179 -30 -189 -78 1042 396 731 203 80 300 625 20 -536 185 -454 530 593 331 -298 -231 -584 472 -482 177 932 540 -77 287 -428 -14 
397 -578 -554 -261 -622 19 -475 275 -7 -445 -608 92 3 414 -1007 -554 -527 357 768 -252 144 -786 336 -168 -485 -951 909 217 -280 -274 465 -333 -4 484 -706 -277 -737 17 27 107 40 214 -173 494 -110 1323 3 470 516 -641 -132 36 203 664 -115 145 -297 -443 474 181 
173 -705 -151 100 240 781 254 -72 169 691 233 -93 -276 -352 -308 427 -193 -458 -682 -190 -151 -493 -155 648 558 617 155 159 -367 79 -241 959 171 1154 -241 -220 26 201 -911 -640 301 -307 744 159 -205 642 526 -274 -223 -623 -740 128 443 338 -225 -29 599 645 -210 -651 
-241 1227 605 634 752 -991 -763 -391 522 336 422 249 -266 88 363 -208 470 582 346 1110 -248 710 -475 -1554 -292 -752 -154 500 1025 560 317 -288 501 75 213 269 261 -271 320 -264 -1162 130 -622 324 -288 18 -1704 1058 592 -446 74 243 109 465 20 -325 -760 -1325 327 1276 
283 -113 -758 -406 40 506 -765 91 -479 -1004 -632 -938 -13 -67 72 105 -601 -346 37 -901 -811 -271 125 -43 -869 -603 525 221 -1093 655 147 -74 -874 287 -266 -720 -531 -8 -110 98 179 475 41 374 2 614 651 13 -67 337 519 -61 -748 -1 251 407 -520 36 444 -883 
-76 292 505 -178 -582 162 -387 -162 -71 220 369 103 -52 185 119 259 505 358 -408 334 318 390 17 488 729 321 -332 -363 -147 265 98 82 484 -509 353 548 -35 22 244 -538 -696 223 -64 136 -177 495 385 91 41 288 252 511 -230 -389 89 -273 480 -419 31 -408 
-246 196 -85 -475 -193 581 619 -154 -215 161 309 -80 321 -937 696 191 856 -268 -874 241 168 1191 -42 603 274 1154 73 533 130 1034 -288 315 -652 -10 54 509 -204 472 367 830 -343 -76 1311 -321 27 -747 119 -193 481 283 1102 -400 325 -680 555 -635 278 248 -641 891 
239 -168 -777 -46 323 1046 185 436 1156 -277 703 -139 -80 -305 510 -578 -442 -176 345 227 -414 1377 -544 116 -859 -934 57 522 -255 609 -287 216 -323 1008 -201 332 1057 -480 -475 -109 204 -619 -184 344 982 -450 -133 -184 77 570 594 98 1185 331 -503 486 -142 347 742 143 
802 -312 420 624 4 15 -823 111 556 1041 89 529 304 -217 -233 238 199 255 481 25 483 -357 -425 128 -15 325 -110 -538 590 -348 484 -388 101 -118 -319 674 -320 -88 -270 -270 435 91 -935 308 36 172 94 -171 427 -1179 -688 -63 -421 257 -544 -163 -566 38 -410 -229 
574 562 -206 -741 403 -326 -521 -58 317 32 158 306 -81 -157 -457 10 208 -304 -472 205 -133 953 -344 218 495 252 306 212 181 486 -1074 -528 142 220 506 927 -454 -343 -231 305 115 680 501 -41 475 -450 565 -557 904 75 541 -264 -984 -195 -18 391 352 -233 -279 951 
877 286 150 -979 -978 -368 -221 -99 -338 627 546 154 -475 -490 750 645 -165 27 -98 -1086 -946 -274 579 97 539 -263 -552 -1180 -1238 -86 -155 356 -355 -178 281 151 -602 -671 164 -32 289 -85 -141 -112 -23 -221 97 -19 -76 379 8 756 -1248 295 -1274 -203 276 394 138 -329 
-1324 -596 133 -551 -367 -329 149 334 -557 -152 388 902 -305 -375 421 672 47 -881 -971 -268 -253 245 112 21 231 53 208 195 244 305 -1043 530 87 597 -79 -44 511 128 983 -25 39 216 -42 -821 -415 303 -599 -104 -588 769 -277 -355 1199 702 -107 -206 215 295 -70 -769 
463 246 -61 91 778 59 -565 29 739 200 660 -707 343 -352 -80 587 453 864 288 -618 -134 229 994 -246 185 -742 -222 -303 -215 418 -180 132 -79 -246 295 9 241 -282 -419 -411 -567 -129 -656 347 480 -283 381 -615 5 283 -359 147 164 588 -649 66 14 -169 522 116 
45 223 -258 -48 -1 328 -244 145 183 -345 368 6 -368 599 -63 -667 -633 -480 -474 -357 -716 195 -374 363 272 -351 336 400 -850 416 -587 525 -458 -268 -111 -15 -426 -8 57 708 299 -590 88 187 415 -585 -461 287 55 -73 593 -308 -35 24 -544 -124 71 1023 253 687 
217 1010 -566 85 134 -276 -220 -205 -158 629 265 -182 -703 305 53 -201 -23 -720 -66 1127 88 -122 372 -659 -785 -515 161 409 319 -202 365 -843 1738 153 229 -1184 412 -449 213 -593 -94 -193 93 326 145 -37 -671 112 -347 11 -779 -167 688 159 -313 749 433 -58 616 -145 
180 -772 313 -441 -506 -741 -390 401 275 272 -504 861 -32 106 -391 407 -57 319 -21 -551 210 -197 419 384 642 401 126 -101 88 -280 -96 720 -590 232 -164 567 -73 36 505 180 835 -84 -1040 -278 -267 -97 -214 156 303 -591 -149 81 -282 322 -333 -640 203 156 -567 -283 
-554 25 471 683 586 472 61 -126 -241 543 232 -437 324 53 -335 498 368 -331 -481 -210 -649 687 -790 91 -515 718 -15 437 -290 376 -713 181 -465 -402 552 -685 -784 -354 -405 860 -395 621 806 99 311 74 226 7 -381 -964 72 -303 359 -315 11 -206 -372 158 250 125 
-68 -179 147 479 599 447 -103 -581 496 -93 -449 -683 348 -346 391 -1314 602 -157 -297 537 1050 -455 -243 387 -43 524 -11 -323 933 286 655 -481 -140 461 -251 -355 390 835 40 -457 -431 182 290 23 -87 -16 -87 -627 -134 -475 23 -319 515 -155 389 -189 -327 356 -681 -399 
620 444 -189 -212 -7 -246 -19 -238 658 -544 354 825 275 345 -442 560 186 561 -504 121 -13 105 -374 -734 395 43 539 -329 101 352 -661 -440 159 -295 286 358 -203 -458 77 -328 -847 724 -3 515 84 621 -105 311 724 137 -164 -653 -646 -354 8 419 190 -212 -138 527 
699 206 12 255 670 64 -136 404 640 703 334 452 127 -799 25 -210 315 -27 -169 771 797 1028 1117 360 14 -554 -358 616 -210 -88 -345 251 446 -10 528 227 588 -377 314 -423 -386 -1063 -449 -210 1124 -642 391 -82 -100 -35 -309 340 1122 347 -1100 47 749 -27 -13 692 
-147 -141 -184 -624 -411 17 -91 1059 -234 -194 -108 -814 167 786 382 -112 745 53 -863 701 -531 -247 -373 -302 70 739 743 -84 -114 1211 157 264 -1022 438 10 -65 540 195 183 18 -611 382 111 21 -288 114 -205 -189 70 319 254 346 49 -525 623 -313 -345 54 -657 281 
163 460 194 559 575 105 60 -414 167 45 -144 -318 329 -418 1114 -598 59 253 907 -192 586 -163 -156 107 -448 -578 -17 435 -120 150 846 -780 -680 121 -281 50 -454 620 592 -168 -177 91 -273 563 -348 -20 660 310 -626 -225 791 295 -9 -177 -324 -308 -713 -880 518 199 
-24 149 -735 -170 -279 840 173 634 -1174 501 485 -640 609 98 -208 -548 -166 -1135 -675 -96 411 -658 260 285 -373 -22 284 348 -887 278 682 -661 -900 -119 64 -138 -862 184 -342 1045 80 -315 885 92 86 -297 -334 -381 -218 -392 455 -229 -382 -405 -326 135 108 107 66 559 
660 635 241 897 -124 -29 178 -940 138 -352 -224 809 -225 -850 -434 -49 227 81 -488 -218 335 0 383 -426 195 41 -414 -176 -109 494 139 753 1332 -744 333 -463 -248 -25 -118 -520 -785 -707 -852 -22 -265 -114 -840 347 -92 -11 -619 -856 -270 388 -23 -701 832 165 -1065 502 
608 171 524 505 197 -359 -1359 -406 -47 657 -51 1227 29 -270 -530 530 -900 -246 97 -315 -420 254 -935 -259 236 -73 -393 104 194 -45 -842 313 284 0 -302 362 -267 -667 -419 -221 548 274 -349 -315 176 134 -773 715 512 -508 -552 168 -916 738 -283 629 -174 174 -193 25 
936 832 -55 -355 -188 -321 -44 -475 756 175 -316 -62 -556 -20 -508 -640 39 248 -196 13 592 69 870 -10 371 -416 -76 -232 -99 -143 -55 -225 959 -256 169 -37 -284 -518 -399 -481 -274 -252 261 132 464 -595 -461 523 210 99 -5 373 281 -169 -938 136 758 -265 710 523 
260 566 715 -303 894 -964 578 -913 892 -670 -485 -224 -448 528 -23 -858 869 532 -102 424 -535 317 1161 -289 -406 -42 109 -48 -292 256 -84 413 67 -1006 391 92 304 168 104 464 28 -76 -169 97 426 -370 159 -464 -107 460 -784 -496 224 86 -283 -397 -357 377 62 369 
-211 -453 -169 -54 40 -22 563 60 -795 442 243 501 4 -462 -116 383 18 -146 361 -806 537 -16 768 440 356 33 278 184 -449 -403 -316 -508 -204 517 606 -428 135 -114 801 709 -338 -628 579 -154 -138 -269 -77 -373 275 227 407 -621 134 -81 379 -289 590 -2 -321 600 
-79 121 0 596 545 -365 259 20 -57 -686 -1012 46 -314 365 -267 195 -491 50 693 231 -170 57 -212 414 -395 673 276 723 102 -167 268 726 458 91 -623 -640 -7 214 -192 -441 725 -184 -162 339 -342 -430 142 239 -458 399 -82 33 -360 -96 199 -287 279 -36 -570 -665 
-302 224 -43 -215 898 -270 761 245 326 -829 365 -473 187 740 -339 363 144 123 485 455 -108 -653 -483 -86 -22 1213 78 -612 -230 -773 311 -257 -226 -205 391 -155 -444 -169 -744 754 24 249 570 724 -422 -381 767 -501 192 69 -86 -15 -601 -874 89 -22 -502 854 -587 -100 
-1256 -464 303 -487 -334 -686 -301 149 -1180 -23 -428 471 -336 -305 97 744 -825 -462 -522 -531 39 536 -362 102 696 637 360 277 -198 -379 -1096 554 310 341 1045 485 930 313 329 222 243 -312 113 -435 -147 86 -484 808 315 -266 257 206 -128 120 1197 201 -74 354 24 -198 
-605 -469 -396 -246 192 -349 -421 520 108 -359 -121 141 172 1036 -784 742 285 192 -484 1450 -527 -313 337 -716 -300 512 650 357 391 -278 -390 1024 -219 -104 -958 123 174 463 -236 -491 800 -254 177 -495 -407 626 248 -49 169 -264 -835 -356 178 393 -158 -15 -299 1121 -494 71 
456 989 -59 -47 -770 -311 -575 -496 -319 56 -81 22 -454 67 -258 -483 -509 0 910 22 -134 -214 -363 -696 303 -820 -1136 -12 261 -252 833 -724 707 319 -402 56 -927 73 346 403 140 801 -1040 40 -846 605 597 158 -200 -182 919 313 -565 616 182 106 61 -1248 -198 42 
-273 -412 -524 255 -296 343 708 312 -13 -305 137 40 484 201 -158 199 -240 151 344 -327 -293 -353 -430 -488 -117 -158 188 408 -71 263 -37 434 -894 609 -810 55 -178 109 -747 78 281 154 50 -188 -505 19 -345 -94 -202 151 253 -340 -164 336 149 -234 -5 -256 -227 468 
346 -574 28 115 151 -9 -89 -342 257 -441 339 224 285 -1292 601 -641 -237 407 657 -483 632 -190 -337 224 -455 -346 -1025 -890 650 21 1278 -282 -139 810 290 10 320 308 285 37 -190 17 -601 504 -373 139 -521 -83 323 -122 -96 420 34 894 346 -162 -474 521 -812 -313 
221 -196 -21 -112 -234 -763 311 124 203 451 -100 474 -314 -347 197 344 288 551 168 -279 506 -23 444 -590 -209 -270 50 415 398 126 213 -605 -51 752 -111 1157 -292 658 316 249 504 647 -98 388 -391 580 877 -515 -41 -135 -80 -1028 -205 748 540 -310 66 -414 -82 221 
502 244 189 123 -157 0 -879 -967 574 -66 -4 -8 -994 504 -557 -203 468 -217 -804 937 -787 526 -239 130 -334 60 -377 -605 -433 7 253 37 1178 125 218 478 -241 -334 -1138 -893 -215 370 130 252 -6 1027 438 -176 1039 -485 -411 66 -293 375 -635 -233 -377 359 7 -466 
275 10 79 610 358 -4 -404 -605 581 528 521 285 -76 502 -360 -243 1014 810 464 543 1126 -991 754 -175 410 -204 450 -699 388 -628 696 -856 864 -148 -141 102 -266 325 295 -839 -943 -726 -20 429 -398 681 157 -766 638 -573 -351 -647 -488 -207 -376 -495 293 -12 12 734 
437 642 155 15 51 -544 767 -364 -179 610 122 -458 -75 120 -412 592 689 697 -246 323 -790 360 1127 -557 -143 303 -409 -249 -1080 170 270 401 -189 -343 654 -498 21 96 191 -135 -463 -169 502 368 279 555 796 -780 -371 88 -482 -93 114 212 -45 -250 346 97 -892 286 
-131 -89 -498 -53 -76 273 907 206 135 -358 232 -489 41 156 59 427 520 143 610 894 -221 -483 245 -387 -377 344 311 -119 160 -541 716 -405 -161 80 -411 -263 -408 350 63 -90 -52 413 220 509 -466 855 1073 -647 -12 -88 -234 -736 -183 -366 391 -377 -272 -313 -787 -740 
601 2 -167 -646 -698 -94 -131 263 13 -481 -180 34 -144 475 -456 -307 288 135 -439 699 46 -538 -268 52 389 -167 12 -963 562 -281 835 -988 -14 353 -386 1004 -713 14 -5 -543 -264 952 11 187 -575 949 497 64 819 -86 379 408 -893 -235 -487 -89 -278 -1086 -452 -257 
-909 -607 -425 25 -236 -163 623 709 -408 505 697 -168 88 -258 753 1663 293 565 -467 -1423 -291 160 -286 271 1066 788 162 -727 -227 -384 -823 525 -150 491 1240 -552 274 -293 143 115 -509 -511 -34 37 -133 -928 255 -606 -54 -425 926 -116 -618 -305 -431 -692 998 317 270 461 
535 -594 91 -435 397 -139 11 -345 195 -246 169 1148 23 -1065 116 -504 -728 -191 -101 -536 -391 192 -219 696 -111 -85 -394 -576 -250 599 200 555 -823 1148 -258 224 545 353 431 -469 535 -366 657 -10 -137 634 -276 -250 263 912 -233 460 105 757 -142 36 3 786 -1198 -340 
291 -238 374 345 171 172 144 -359 281 28 -663 -383 506 241 -622 536 759 1251 -57 196 289 291 629 207 455 676 -40 51 -37 -287 -536 358 -760 -1105 199 58 -256 -76 -326 206 -96 509 74 378 600 -156 481 -23 147 -624 -456 -680 -313 -109 97 -34 79 7 -269 -279 
